PE IR       SUBTECH     SPECTRUM    ASCII       PEDS        1.60        
  -1
1911B15B.ASC
07/11/30
17:45:28.00
07/12/03
18:00:21.00
koro/arcerd
24hr-100c-64 scans
450.000000
64









1004,02.19S
DTGS
MIR
KBR
52208
0.300000

4.000000
STRONG
RATIO
MAGNITUDE


DOUBLE SIDED
16
BIDIRECTIONAL
2




#HDR
-1
-1
#GR
CM-1
A
0.00000011920928955078
0.0
4400.000000
-2.000000
1976
8
2.240373
0.173954
#DATA
4400.000000	1.663088 
4398.000000	1.662645 
4396.000000	1.664568 
4394.000000	1.664190 
4392.000000	1.661044 
4390.000000	1.662107 
4388.000000	1.665482 
4386.000000	1.666360 
4384.000000	1.664214 
4382.000000	1.661466 
4380.000000	1.661285 
4378.000000	1.662250 
4376.000000	1.661357 
4374.000000	1.661718 
4372.000000	1.660418 
4370.000000	1.659906 
4368.000000	1.664788 
4366.000000	1.667668 
4364.000000	1.666663 
4362.000000	1.663627 
4360.000000	1.662464 
4358.000000	1.663966 
4356.000000	1.668067 
4354.000000	1.669898 
4352.000000	1.667932 
4350.000000	1.663765 
4348.000000	1.661414 
4346.000000	1.665190 
4344.000000	1.666687 
4342.000000	1.661865 
4340.000000	1.660977 
4338.000000	1.666528 
4336.000000	1.665631 
4334.000000	1.663002 
4332.000000	1.664587 
4330.000000	1.664860 
4328.000000	1.662483 
4326.000000	1.663093 
4324.000000	1.666999 
4322.000000	1.665056 
4320.000000	1.662850 
4318.000000	1.662164 
4316.000000	1.657082 
4314.000000	1.655810 
4312.000000	1.658089 
4310.000000	1.658273 
4308.000000	1.659188 
4306.000000	1.662783 
4304.000000	1.666192 
4302.000000	1.668303 
4300.000000	1.666648 
4298.000000	1.659802 
4296.000000	1.657110 
4294.000000	1.663603 
4292.000000	1.667033 
4290.000000	1.664888 
4288.000000	1.668009 
4286.000000	1.668800 
4284.000000	1.661974 
4282.000000	1.660285 
4280.000000	1.663550 
4278.000000	1.663971 
4276.000000	1.666668 
4274.000000	1.667182 
4272.000000	1.661575 
4270.000000	1.661190 
4268.000000	1.662131 
4266.000000	1.661575 
4264.000000	1.664955 
4262.000000	1.664587 
4260.000000	1.664558 
4258.000000	1.665588 
4256.000000	1.659027 
4254.000000	1.658674 
4252.000000	1.660295 
4250.000000	1.662355 
4248.000000	1.666101 
4246.000000	1.664888 
4244.000000	1.661257 
4242.000000	1.659226 
4240.000000	1.660797 
4238.000000	1.663136 
4236.000000	1.663846 
4234.000000	1.663293 
4232.000000	1.662131 
4230.000000	1.664539 
4228.000000	1.668154 
4226.000000	1.666010 
4224.000000	1.660650 
4222.000000	1.659046 
4220.000000	1.659098 
4218.000000	1.659377 
4216.000000	1.658796 
4214.000000	1.658740 
4212.000000	1.658697 
4210.000000	1.658480 
4208.000000	1.660153 
4206.000000	1.659443 
4204.000000	1.656321 
4202.000000	1.654995 
4200.000000	1.656955 
4198.000000	1.660915 
4196.000000	1.660527 
4194.000000	1.657773 
4192.000000	1.661751 
4190.000000	1.662298 
4188.000000	1.658150 
4186.000000	1.659405 
4184.000000	1.661912 
4182.000000	1.661613 
4180.000000	1.659992 
4178.000000	1.661039 
4176.000000	1.661039 
4174.000000	1.657679 
4172.000000	1.656429 
4170.000000	1.658777 
4168.000000	1.659259 
4166.000000	1.658367 
4164.000000	1.660167 
4162.000000	1.659902 
4160.000000	1.655829 
4158.000000	1.656584 
4156.000000	1.661870 
4154.000000	1.664979 
4152.000000	1.661604 
4150.000000	1.657482 
4148.000000	1.658362 
4146.000000	1.658810 
4144.000000	1.657289 
4142.000000	1.656401 
4140.000000	1.656950 
4138.000000	1.657204 
4136.000000	1.655847 
4134.000000	1.656682 
4132.000000	1.661105 
4130.000000	1.662926 
4128.000000	1.663851 
4126.000000	1.662331 
4124.000000	1.658711 
4122.000000	1.656537 
4120.000000	1.657284 
4118.000000	1.660716 
4116.000000	1.663546 
4114.000000	1.661110 
4112.000000	1.656237 
4110.000000	1.655398 
4108.000000	1.656833 
4106.000000	1.658009 
4104.000000	1.660086 
4102.000000	1.660626 
4100.000000	1.657392 
4098.000000	1.658740 
4096.000000	1.662693 
4094.000000	1.662350 
4092.000000	1.659703 
4090.000000	1.656898 
4088.000000	1.655702 
4086.000000	1.660569 
4084.000000	1.663622 
4082.000000	1.660740 
4080.000000	1.655969 
4078.000000	1.657566 
4076.000000	1.661380 
4074.000000	1.662450 
4072.000000	1.660797 
4070.000000	1.656964 
4068.000000	1.657185 
4066.000000	1.657195 
4064.000000	1.656969 
4062.000000	1.659783 
4060.000000	1.663012 
4058.000000	1.662136 
4056.000000	1.659604 
4054.000000	1.659292 
4052.000000	1.658820 
4050.000000	1.657896 
4048.000000	1.660498 
4046.000000	1.661466 
4044.000000	1.657054 
4042.000000	1.654864 
4040.000000	1.654663 
4038.000000	1.655196 
4036.000000	1.658622 
4034.000000	1.661879 
4032.000000	1.661485 
4030.000000	1.654420 
4028.000000	1.652295 
4026.000000	1.657030 
4024.000000	1.656265 
4022.000000	1.659353 
4020.000000	1.662007 
4018.000000	1.661409 
4016.000000	1.658334 
4014.000000	1.656255 
4012.000000	1.656415 
4010.000000	1.654313 
4008.000000	1.651631 
4006.000000	1.652951 
4004.000000	1.656204 
4002.000000	1.658127 
4000.000000	1.658683 
3998.000000	1.659788 
3996.000000	1.661100 
3994.000000	1.660536 
3992.000000	1.659798 
3990.000000	1.660214 
3988.000000	1.660072 
3986.000000	1.659869 
3984.000000	1.656466 
3982.000000	1.656340 
3980.000000	1.661447 
3978.000000	1.662650 
3976.000000	1.662497 
3974.000000	1.664687 
3972.000000	1.661798 
3970.000000	1.655416 
3968.000000	1.656617 
3966.000000	1.659108 
3964.000000	1.657948 
3962.000000	1.657119 
3960.000000	1.657919 
3958.000000	1.658815 
3956.000000	1.657656 
3954.000000	1.656434 
3952.000000	1.658405 
3950.000000	1.660408 
3948.000000	1.660778 
3946.000000	1.659188 
3944.000000	1.658145 
3942.000000	1.662383 
3940.000000	1.664554 
3938.000000	1.662174 
3936.000000	1.659954 
3934.000000	1.658777 
3932.000000	1.660366 
3930.000000	1.662955 
3928.000000	1.661048 
3926.000000	1.656866 
3924.000000	1.658263 
3922.000000	1.662093 
3920.000000	1.661665 
3918.000000	1.661347 
3916.000000	1.667750 
3914.000000	1.668149 
3912.000000	1.663971 
3910.000000	1.663117 
3908.000000	1.658169 
3906.000000	1.651803 
3904.000000	1.658829 
3902.000000	1.668433 
3900.000000	1.670067 
3898.000000	1.670183 
3896.000000	1.667654 
3894.000000	1.660209 
3892.000000	1.657580 
3890.000000	1.662364 
3888.000000	1.658824 
3886.000000	1.658853 
3884.000000	1.665626 
3882.000000	1.664142 
3880.000000	1.664525 
3878.000000	1.667413 
3876.000000	1.665923 
3874.000000	1.664582 
3872.000000	1.661024 
3870.000000	1.664487 
3868.000000	1.672968 
3866.000000	1.668824 
3864.000000	1.667932 
3862.000000	1.673280 
3860.000000	1.670746 
3858.000000	1.661153 
3856.000000	1.649288 
3854.000000	1.660579 
3852.000000	1.687942 
3850.000000	1.689230 
3848.000000	1.677570 
3846.000000	1.666312 
3844.000000	1.661153 
3842.000000	1.660764 
3840.000000	1.658273 
3838.000000	1.666802 
3836.000000	1.674903 
3834.000000	1.670484 
3832.000000	1.669196 
3830.000000	1.670867 
3828.000000	1.666504 
3826.000000	1.667365 
3824.000000	1.665018 
3822.000000	1.663403 
3820.000000	1.672637 
3818.000000	1.669235 
3816.000000	1.671270 
3814.000000	1.680274 
3812.000000	1.671843 
3810.000000	1.657745 
3808.000000	1.655571 
3806.000000	1.668134 
3804.000000	1.667673 
3802.000000	1.662645 
3800.000000	1.672710 
3798.000000	1.675094 
3796.000000	1.673402 
3794.000000	1.673685 
3792.000000	1.666509 
3790.000000	1.661029 
3788.000000	1.664659 
3786.000000	1.665382 
3784.000000	1.665291 
3782.000000	1.666312 
3780.000000	1.666581 
3778.000000	1.670600 
3776.000000	1.670954 
3774.000000	1.665477 
3772.000000	1.662635 
3770.000000	1.669119 
3768.000000	1.673720 
3766.000000	1.669051 
3764.000000	1.669501 
3762.000000	1.669956 
3760.000000	1.670256 
3758.000000	1.679279 
3756.000000	1.681202 
3754.000000	1.668255 
3752.000000	1.671746 
3750.000000	1.697002 
3748.000000	1.711637 
3746.000000	1.708003 
3744.000000	1.718523 
3742.000000	1.728785 
3740.000000	1.717950 
3738.000000	1.707089 
3736.000000	1.714782 
3734.000000	1.727004 
3732.000000	1.727517 
3730.000000	1.724180 
3728.000000	1.715179 
3726.000000	1.711589 
3724.000000	1.716525 
3722.000000	1.723013 
3720.000000	1.729784 
3718.000000	1.728464 
3716.000000	1.722500 
3714.000000	1.717242 
3712.000000	1.723687 
3710.000000	1.743197 
3708.000000	1.754206 
3706.000000	1.748020 
3704.000000	1.745132 
3702.000000	1.754801 
3700.000000	1.765358 
3698.000000	1.765539 
3696.000000	1.758947 
3694.000000	1.753578 
3692.000000	1.750624 
3690.000000	1.760250 
3688.000000	1.782864 
3686.000000	1.796040 
3684.000000	1.793368 
3682.000000	1.788132 
3680.000000	1.786825 
3678.000000	1.784985 
3676.000000	1.794147 
3674.000000	1.815788 
3672.000000	1.812360 
3670.000000	1.816025 
3668.000000	1.835164 
3666.000000	1.830366 
3664.000000	1.819612 
3662.000000	1.822865 
3660.000000	1.827232 
3658.000000	1.827698 
3656.000000	1.837081 
3654.000000	1.838257 
3652.000000	1.820475 
3650.000000	1.824541 
3648.000000	1.855875 
3646.000000	1.863815 
3644.000000	1.849987 
3642.000000	1.842609 
3640.000000	1.845653 
3638.000000	1.844588 
3636.000000	1.844450 
3634.000000	1.844060 
3632.000000	1.837309 
3630.000000	1.832219 
3628.000000	1.857833 
3626.000000	1.872159 
3624.000000	1.860281 
3622.000000	1.847391 
3620.000000	1.850360 
3618.000000	1.866968 
3616.000000	1.868014 
3614.000000	1.859516 
3612.000000	1.856589 
3610.000000	1.855972 
3608.000000	1.864529 
3606.000000	1.872745 
3604.000000	1.869514 
3602.000000	1.864180 
3600.000000	1.862425 
3598.000000	1.867723 
3596.000000	1.870527 
3594.000000	1.869268 
3592.000000	1.867655 
3590.000000	1.853948 
3588.000000	1.853977 
3586.000000	1.877373 
3584.000000	1.886463 
3582.000000	1.879510 
3580.000000	1.872051 
3578.000000	1.871011 
3576.000000	1.868977 
3574.000000	1.869897 
3572.000000	1.871219 
3570.000000	1.866549 
3568.000000	1.873279 
3566.000000	1.892410 
3564.000000	1.895166 
3562.000000	1.888148 
3560.000000	1.882084 
3558.000000	1.876196 
3556.000000	1.876570 
3554.000000	1.880611 
3552.000000	1.885475 
3550.000000	1.887748 
3548.000000	1.885618 
3546.000000	1.886335 
3544.000000	1.893924 
3542.000000	1.894654 
3540.000000	1.892184 
3538.000000	1.890153 
3536.000000	1.894394 
3534.000000	1.896912 
3532.000000	1.895158 
3530.000000	1.894703 
3528.000000	1.894711 
3526.000000	1.897018 
3524.000000	1.902856 
3522.000000	1.908229 
3520.000000	1.903536 
3518.000000	1.897811 
3516.000000	1.900471 
3514.000000	1.903270 
3512.000000	1.901856 
3510.000000	1.902029 
3508.000000	1.906431 
3506.000000	1.909748 
3504.000000	1.908229 
3502.000000	1.911079 
3500.000000	1.914095 
3498.000000	1.910388 
3496.000000	1.910700 
3494.000000	1.911273 
3492.000000	1.909353 
3490.000000	1.908925 
3488.000000	1.911248 
3486.000000	1.913083 
3484.000000	1.916096 
3482.000000	1.919885 
3480.000000	1.919437 
3478.000000	1.917096 
3476.000000	1.918544 
3474.000000	1.917832 
3472.000000	1.916276 
3470.000000	1.918338 
3468.000000	1.922570 
3466.000000	1.921161 
3464.000000	1.917199 
3462.000000	1.920678 
3460.000000	1.924167 
3458.000000	1.915252 
3456.000000	1.910220 
3454.000000	1.919515 
3452.000000	1.924167 
3450.000000	1.920626 
3448.000000	1.918244 
3446.000000	1.921610 
3444.000000	1.922051 
3442.000000	1.919868 
3440.000000	1.922337 
3438.000000	1.923143 
3436.000000	1.919764 
3434.000000	1.919308 
3432.000000	1.914818 
3430.000000	1.913442 
3428.000000	1.914631 
3426.000000	1.911468 
3424.000000	1.912778 
3422.000000	1.913764 
3420.000000	1.910742 
3418.000000	1.910616 
3416.000000	1.913993 
3414.000000	1.918132 
3412.000000	1.916011 
3410.000000	1.912524 
3408.000000	1.913399 
3406.000000	1.913083 
3404.000000	1.915491 
3402.000000	1.921826 
3400.000000	1.919739 
3398.000000	1.915320 
3396.000000	1.915994 
3394.000000	1.914733 
3392.000000	1.913747 
3390.000000	1.911636 
3388.000000	1.908732 
3386.000000	1.907843 
3384.000000	1.907266 
3382.000000	1.904989 
3380.000000	1.904814 
3378.000000	1.908086 
3376.000000	1.909194 
3374.000000	1.907233 
3372.000000	1.902525 
3370.000000	1.902162 
3368.000000	1.908833 
3366.000000	1.907902 
3364.000000	1.902087 
3362.000000	1.898958 
3360.000000	1.901526 
3358.000000	1.898548 
3356.000000	1.892103 
3354.000000	1.894419 
3352.000000	1.895988 
3350.000000	1.892604 
3348.000000	1.889687 
3346.000000	1.890772 
3344.000000	1.893462 
3342.000000	1.891248 
3340.000000	1.891538 
3338.000000	1.892709 
3336.000000	1.892240 
3334.000000	1.892361 
3332.000000	1.891111 
3330.000000	1.888068 
3328.000000	1.885985 
3326.000000	1.886024 
3324.000000	1.885642 
3322.000000	1.884427 
3320.000000	1.883373 
3318.000000	1.882369 
3316.000000	1.882416 
3314.000000	1.877701 
3312.000000	1.874285 
3310.000000	1.874014 
3308.000000	1.875862 
3306.000000	1.875916 
3304.000000	1.872406 
3302.000000	1.870896 
3300.000000	1.871835 
3298.000000	1.870719 
3296.000000	1.870465 
3294.000000	1.875201 
3292.000000	1.876601 
3290.000000	1.870465 
3288.000000	1.868381 
3286.000000	1.868618 
3284.000000	1.867487 
3282.000000	1.864256 
3280.000000	1.859921 
3278.000000	1.858453 
3276.000000	1.861062 
3274.000000	1.864930 
3272.000000	1.864961 
3270.000000	1.860709 
3268.000000	1.858379 
3266.000000	1.852103 
3264.000000	1.846954 
3262.000000	1.845428 
3260.000000	1.847282 
3258.000000	1.851749 
3256.000000	1.852744 
3254.000000	1.851646 
3252.000000	1.849254 
3250.000000	1.846314 
3248.000000	1.843460 
3246.000000	1.842285 
3244.000000	1.845160 
3242.000000	1.847158 
3240.000000	1.845907 
3238.000000	1.844675 
3236.000000	1.840567 
3234.000000	1.841055 
3232.000000	1.846096 
3230.000000	1.844964 
3228.000000	1.840768 
3226.000000	1.840273 
3224.000000	1.839736 
3222.000000	1.836235 
3220.000000	1.833657 
3218.000000	1.834400 
3216.000000	1.832304 
3214.000000	1.828395 
3212.000000	1.827934 
3210.000000	1.826766 
3208.000000	1.828053 
3206.000000	1.829148 
3204.000000	1.827719 
3202.000000	1.826321 
3200.000000	1.823264 
3198.000000	1.819960 
3196.000000	1.818868 
3194.000000	1.819523 
3192.000000	1.822404 
3190.000000	1.821531 
3188.000000	1.816228 
3186.000000	1.813248 
3184.000000	1.812017 
3182.000000	1.811132 
3180.000000	1.810978 
3178.000000	1.812562 
3176.000000	1.815666 
3174.000000	1.815266 
3172.000000	1.812145 
3170.000000	1.808273 
3168.000000	1.803277 
3166.000000	1.799477 
3164.000000	1.800783 
3162.000000	1.805527 
3160.000000	1.805117 
3158.000000	1.796759 
3156.000000	1.791981 
3154.000000	1.793478 
3152.000000	1.794193 
3150.000000	1.793529 
3148.000000	1.792597 
3146.000000	1.791828 
3144.000000	1.787700 
3142.000000	1.785250 
3140.000000	1.783845 
3138.000000	1.783348 
3136.000000	1.785276 
3134.000000	1.783731 
3132.000000	1.780853 
3130.000000	1.779187 
3128.000000	1.777243 
3126.000000	1.777106 
3124.000000	1.778248 
3122.000000	1.778913 
3120.000000	1.776976 
3118.000000	1.775134 
3116.000000	1.775233 
3114.000000	1.775646 
3112.000000	1.773533 
3110.000000	1.771890 
3108.000000	1.771204 
3106.000000	1.770563 
3104.000000	1.766674 
3102.000000	1.766390 
3100.000000	1.769326 
3098.000000	1.766142 
3096.000000	1.763715 
3094.000000	1.764677 
3092.000000	1.763024 
3090.000000	1.760071 
3088.000000	1.758406 
3086.000000	1.757244 
3084.000000	1.757618 
3082.000000	1.756931 
3080.000000	1.755814 
3078.000000	1.754624 
3076.000000	1.754312 
3074.000000	1.753461 
3072.000000	1.753202 
3070.000000	1.750338 
3068.000000	1.742710 
3066.000000	1.738908 
3064.000000	1.741121 
3062.000000	1.745363 
3060.000000	1.745795 
3058.000000	1.741304 
3056.000000	1.740090 
3054.000000	1.742178 
3052.000000	1.739590 
3050.000000	1.738596 
3048.000000	1.739539 
3046.000000	1.735968 
3044.000000	1.730719 
3042.000000	1.730057 
3040.000000	1.730914 
3038.000000	1.729051 
3036.000000	1.729940 
3034.000000	1.733674 
3032.000000	1.733770 
3030.000000	1.730696 
3028.000000	1.726573 
3026.000000	1.724416 
3024.000000	1.723862 
3022.000000	1.722166 
3020.000000	1.722046 
3018.000000	1.721866 
3016.000000	1.718047 
3014.000000	1.716999 
3012.000000	1.720205 
3010.000000	1.721419 
3008.000000	1.719434 
3006.000000	1.716908 
3004.000000	1.715873 
3002.000000	1.716083 
3000.000000	1.717993 
2998.000000	1.719309 
2996.000000	1.716773 
2994.000000	1.717291 
2992.000000	1.718518 
2990.000000	1.720967 
2988.000000	1.721599 
2986.000000	1.719613 
2984.000000	1.719076 
2982.000000	1.717150 
2980.000000	1.714669 
2978.000000	1.714932 
2976.000000	1.714852 
2974.000000	1.716035 
2972.000000	1.720559 
2970.000000	1.724795 
2968.000000	1.723873 
2966.000000	1.723397 
2964.000000	1.726000 
2962.000000	1.726176 
2960.000000	1.721735 
2958.000000	1.718080 
2956.000000	1.715599 
2954.000000	1.714208 
2952.000000	1.715674 
2950.000000	1.717075 
2948.000000	1.719336 
2946.000000	1.719781 
2944.000000	1.716945 
2942.000000	1.714680 
2940.000000	1.711877 
2938.000000	1.712897 
2936.000000	1.716385 
2934.000000	1.718507 
2932.000000	1.720466 
2930.000000	1.721577 
2928.000000	1.720401 
2926.000000	1.718556 
2924.000000	1.714412 
2922.000000	1.713608 
2920.000000	1.711136 
2918.000000	1.705494 
2916.000000	1.703021 
2914.000000	1.701045 
2912.000000	1.697853 
2910.000000	1.693645 
2908.000000	1.689635 
2906.000000	1.687836 
2904.000000	1.686179 
2902.000000	1.683769 
2900.000000	1.681515 
2898.000000	1.679769 
2896.000000	1.679660 
2894.000000	1.681222 
2892.000000	1.681913 
2890.000000	1.680180 
2888.000000	1.679521 
2886.000000	1.677029 
2884.000000	1.673622 
2882.000000	1.676989 
2880.000000	1.678725 
2878.000000	1.671936 
2876.000000	1.669298 
2874.000000	1.672301 
2872.000000	1.673407 
2870.000000	1.673187 
2868.000000	1.673461 
2866.000000	1.672237 
2864.000000	1.670111 
2862.000000	1.669709 
2860.000000	1.671775 
2858.000000	1.674658 
2856.000000	1.675511 
2854.000000	1.672349 
2852.000000	1.669423 
2850.000000	1.665909 
2848.000000	1.661817 
2846.000000	1.657552 
2844.000000	1.654471 
2842.000000	1.651459 
2840.000000	1.649104 
2838.000000	1.651023 
2836.000000	1.651366 
2834.000000	1.649132 
2832.000000	1.647479 
2830.000000	1.645878 
2828.000000	1.644250 
2826.000000	1.644593 
2824.000000	1.646717 
2822.000000	1.645772 
2820.000000	1.643757 
2818.000000	1.642392 
2816.000000	1.640560 
2814.000000	1.639837 
2812.000000	1.639868 
2810.000000	1.640130 
2808.000000	1.641466 
2806.000000	1.640130 
2804.000000	1.637395 
2802.000000	1.637732 
2800.000000	1.637566 
2798.000000	1.638700 
2796.000000	1.640696 
2794.000000	1.639611 
2792.000000	1.637314 
2790.000000	1.636475 
2788.000000	1.635539 
2786.000000	1.634869 
2784.000000	1.636484 
2782.000000	1.635034 
2780.000000	1.633024 
2778.000000	1.633246 
2776.000000	1.632784 
2774.000000	1.633002 
2772.000000	1.633028 
2770.000000	1.630364 
2768.000000	1.630236 
2766.000000	1.632047 
2764.000000	1.632837 
2762.000000	1.630585 
2760.000000	1.628636 
2758.000000	1.626480 
2756.000000	1.626638 
2754.000000	1.628385 
2752.000000	1.627726 
2750.000000	1.625526 
2748.000000	1.624696 
2746.000000	1.626003 
2744.000000	1.627471 
2742.000000	1.628931 
2740.000000	1.629500 
2738.000000	1.627779 
2736.000000	1.626476 
2734.000000	1.626287 
2732.000000	1.626156 
2730.000000	1.625198 
2728.000000	1.625928 
2726.000000	1.626152 
2724.000000	1.624657 
2722.000000	1.623155 
2720.000000	1.622768 
2718.000000	1.623842 
2716.000000	1.623220 
2714.000000	1.621242 
2712.000000	1.620671 
2710.000000	1.622742 
2708.000000	1.622061 
2706.000000	1.618416 
2704.000000	1.617321 
2702.000000	1.619014 
2700.000000	1.618622 
2698.000000	1.618188 
2696.000000	1.620174 
2694.000000	1.620757 
2692.000000	1.619255 
2690.000000	1.618648 
2688.000000	1.617132 
2686.000000	1.615788 
2684.000000	1.616387 
2682.000000	1.616708 
2680.000000	1.616280 
2678.000000	1.618171 
2676.000000	1.620092 
2674.000000	1.619794 
2672.000000	1.618515 
2670.000000	1.617956 
2668.000000	1.616494 
2666.000000	1.615553 
2664.000000	1.614601 
2662.000000	1.613495 
2660.000000	1.614371 
2658.000000	1.616982 
2656.000000	1.616648 
2654.000000	1.613129 
2652.000000	1.610830 
2650.000000	1.610467 
2648.000000	1.611084 
2646.000000	1.612942 
2644.000000	1.613856 
2642.000000	1.613006 
2640.000000	1.614354 
2638.000000	1.614533 
2636.000000	1.613631 
2634.000000	1.615182 
2632.000000	1.616485 
2630.000000	1.614900 
2628.000000	1.613605 
2626.000000	1.612471 
2624.000000	1.609860 
2622.000000	1.607937 
2620.000000	1.607803 
2618.000000	1.607702 
2616.000000	1.607853 
2614.000000	1.609110 
2612.000000	1.608365 
2610.000000	1.607056 
2608.000000	1.607878 
2606.000000	1.607056 
2604.000000	1.606596 
2602.000000	1.609185 
2600.000000	1.611355 
2598.000000	1.608929 
2596.000000	1.607320 
2594.000000	1.608975 
2592.000000	1.610332 
2590.000000	1.608525 
2588.000000	1.606403 
2586.000000	1.605852 
2584.000000	1.606391 
2582.000000	1.605935 
2580.000000	1.603132 
2578.000000	1.602983 
2576.000000	1.605192 
2574.000000	1.604854 
2572.000000	1.604763 
2570.000000	1.603751 
2568.000000	1.602958 
2566.000000	1.603186 
2564.000000	1.601090 
2562.000000	1.599861 
2560.000000	1.602423 
2558.000000	1.605714 
2556.000000	1.605355 
2554.000000	1.602821 
2552.000000	1.601471 
2550.000000	1.600380 
2548.000000	1.601375 
2546.000000	1.602589 
2544.000000	1.601165 
2542.000000	1.599070 
2540.000000	1.599889 
2538.000000	1.600417 
2536.000000	1.599120 
2534.000000	1.598799 
2532.000000	1.600855 
2530.000000	1.601202 
2528.000000	1.600504 
2526.000000	1.600958 
2524.000000	1.600880 
2522.000000	1.600690 
2520.000000	1.598992 
2518.000000	1.597301 
2516.000000	1.596565 
2514.000000	1.594950 
2512.000000	1.594254 
2510.000000	1.595552 
2508.000000	1.595609 
2506.000000	1.595170 
2504.000000	1.595150 
2502.000000	1.595486 
2500.000000	1.598236 
2498.000000	1.598811 
2496.000000	1.597482 
2494.000000	1.594983 
2492.000000	1.594148 
2490.000000	1.595588 
2488.000000	1.595393 
2486.000000	1.594714 
2484.000000	1.594283 
2482.000000	1.594950 
2480.000000	1.594482 
2478.000000	1.590597 
2476.000000	1.587658 
2474.000000	1.588336 
2472.000000	1.590581 
2470.000000	1.591897 
2468.000000	1.590024 
2466.000000	1.587142 
2464.000000	1.587426 
2462.000000	1.589545 
2460.000000	1.590722 
2458.000000	1.590488 
2456.000000	1.590476 
2454.000000	1.591586 
2452.000000	1.591861 
2450.000000	1.590919 
2448.000000	1.590625 
2446.000000	1.590831 
2444.000000	1.589276 
2442.000000	1.589606 
2440.000000	1.590230 
2438.000000	1.588368 
2436.000000	1.585209 
2434.000000	1.585138 
2432.000000	1.586822 
2430.000000	1.586051 
2428.000000	1.585257 
2426.000000	1.586302 
2424.000000	1.587098 
2422.000000	1.585720 
2420.000000	1.585006 
2418.000000	1.584596 
2416.000000	1.585333 
2414.000000	1.586514 
2412.000000	1.583793 
2410.000000	1.582220 
2408.000000	1.583662 
2406.000000	1.585054 
2404.000000	1.585891 
2402.000000	1.585341 
2400.000000	1.584919 
2398.000000	1.585118 
2396.000000	1.584895 
2394.000000	1.584382 
2392.000000	1.584688 
2390.000000	1.587879 
2388.000000	1.587138 
2386.000000	1.584147 
2384.000000	1.583428 
2382.000000	1.583190 
2380.000000	1.584712 
2378.000000	1.585178 
2376.000000	1.582600 
2374.000000	1.581035 
2372.000000	1.581351 
2370.000000	1.582933 
2368.000000	1.583730 
2366.000000	1.585277 
2364.000000	1.587082 
2362.000000	1.589292 
2360.000000	1.589871 
2358.000000	1.594950 
2356.000000	1.601541 
2354.000000	1.601466 
2352.000000	1.601860 
2350.000000	1.598700 
2348.000000	1.588910 
2346.000000	1.583754 
2344.000000	1.589312 
2342.000000	1.595597 
2340.000000	1.598466 
2338.000000	1.599688 
2336.000000	1.601624 
2334.000000	1.602916 
2332.000000	1.604408 
2330.000000	1.609270 
2328.000000	1.611160 
2326.000000	1.609940 
2324.000000	1.612399 
2322.000000	1.616066 
2320.000000	1.618369 
2318.000000	1.619587 
2316.000000	1.621186 
2314.000000	1.623912 
2312.000000	1.629002 
2310.000000	1.636153 
2308.000000	1.639814 
2306.000000	1.640877 
2304.000000	1.642397 
2302.000000	1.646538 
2300.000000	1.652988 
2298.000000	1.659552 
2296.000000	1.666528 
2294.000000	1.672661 
2292.000000	1.678725 
2290.000000	1.688668 
2288.000000	1.699431 
2286.000000	1.709633 
2284.000000	1.717518 
2282.000000	1.729734 
2280.000000	1.747233 
2278.000000	1.764057 
2276.000000	1.778111 
2274.000000	1.793735 
2272.000000	1.812427 
2270.000000	1.826856 
2268.000000	1.841112 
2266.000000	1.858020 
2264.000000	1.869652 
2262.000000	1.877272 
2260.000000	1.884832 
2258.000000	1.887940 
2256.000000	1.885515 
2254.000000	1.889968 
2252.000000	1.892063 
2250.000000	1.882621 
2248.000000	1.875185 
2246.000000	1.867853 
2244.000000	1.859936 
2242.000000	1.852766 
2240.000000	1.844993 
2238.000000	1.835023 
2236.000000	1.819735 
2234.000000	1.806538 
2232.000000	1.799868 
2230.000000	1.791149 
2228.000000	1.778161 
2226.000000	1.769289 
2224.000000	1.763901 
2222.000000	1.757961 
2220.000000	1.752277 
2218.000000	1.752218 
2216.000000	1.755307 
2214.000000	1.760805 
2212.000000	1.768608 
2210.000000	1.772306 
2208.000000	1.771076 
2206.000000	1.771804 
2204.000000	1.772852 
2202.000000	1.769332 
2200.000000	1.764593 
2198.000000	1.760435 
2196.000000	1.757570 
2194.000000	1.752792 
2192.000000	1.744511 
2190.000000	1.735996 
2188.000000	1.732303 
2186.000000	1.727064 
2184.000000	1.718421 
2182.000000	1.712939 
2180.000000	1.708262 
2178.000000	1.701123 
2176.000000	1.696081 
2174.000000	1.694203 
2172.000000	1.691885 
2170.000000	1.688941 
2168.000000	1.687473 
2166.000000	1.687735 
2164.000000	1.688527 
2162.000000	1.687211 
2160.000000	1.685271 
2158.000000	1.685316 
2156.000000	1.684724 
2154.000000	1.683074 
2152.000000	1.682805 
2150.000000	1.679863 
2148.000000	1.674888 
2146.000000	1.672004 
2144.000000	1.669438 
2142.000000	1.665789 
2140.000000	1.663503 
2138.000000	1.659855 
2136.000000	1.654224 
2134.000000	1.651492 
2132.000000	1.649727 
2130.000000	1.648225 
2128.000000	1.646827 
2126.000000	1.646011 
2124.000000	1.643794 
2122.000000	1.640963 
2120.000000	1.637283 
2118.000000	1.634659 
2116.000000	1.630939 
2114.000000	1.628188 
2112.000000	1.626835 
2110.000000	1.623337 
2108.000000	1.620265 
2106.000000	1.619070 
2104.000000	1.614998 
2102.000000	1.610923 
2100.000000	1.608084 
2098.000000	1.604009 
2096.000000	1.600302 
2094.000000	1.598988 
2092.000000	1.597350 
2090.000000	1.595097 
2088.000000	1.593032 
2086.000000	1.589799 
2084.000000	1.585305 
2082.000000	1.582517 
2080.000000	1.581047 
2078.000000	1.576609 
2076.000000	1.570732 
2074.000000	1.566709 
2072.000000	1.564504 
2070.000000	1.563095 
2068.000000	1.560190 
2066.000000	1.555347 
2064.000000	1.553436 
2062.000000	1.550914 
2060.000000	1.546816 
2058.000000	1.544852 
2056.000000	1.543250 
2054.000000	1.540873 
2052.000000	1.539526 
2050.000000	1.537548 
2048.000000	1.534833 
2046.000000	1.533469 
2044.000000	1.532973 
2042.000000	1.532803 
2040.000000	1.532803 
2038.000000	1.530841 
2036.000000	1.530149 
2034.000000	1.531003 
2032.000000	1.529861 
2030.000000	1.527051 
2028.000000	1.526682 
2026.000000	1.526692 
2024.000000	1.525378 
2022.000000	1.526059 
2020.000000	1.525687 
2018.000000	1.524328 
2016.000000	1.526563 
2014.000000	1.525277 
2012.000000	1.522990 
2010.000000	1.525076 
2008.000000	1.524341 
2006.000000	1.521773 
2004.000000	1.521528 
2002.000000	1.520171 
2000.000000	1.518980 
1998.000000	1.519681 
1996.000000	1.520123 
1994.000000	1.519243 
1992.000000	1.521085 
1990.000000	1.521466 
1988.000000	1.518237 
1986.000000	1.517745 
1984.000000	1.518592 
1982.000000	1.517633 
1980.000000	1.515599 
1978.000000	1.516094 
1976.000000	1.517476 
1974.000000	1.516108 
1972.000000	1.513567 
1970.000000	1.512127 
1968.000000	1.513449 
1966.000000	1.516472 
1964.000000	1.515480 
1962.000000	1.513459 
1960.000000	1.512147 
1958.000000	1.513848 
1956.000000	1.515303 
1954.000000	1.514365 
1952.000000	1.513908 
1950.000000	1.513821 
1948.000000	1.513324 
1946.000000	1.511417 
1944.000000	1.509522 
1942.000000	1.513142 
1940.000000	1.515127 
1938.000000	1.512889 
1936.000000	1.512009 
1934.000000	1.510947 
1932.000000	1.510752 
1930.000000	1.511357 
1928.000000	1.511290 
1926.000000	1.509619 
1924.000000	1.509365 
1922.000000	1.512808 
1920.000000	1.509291 
1918.000000	1.509773 
1916.000000	1.513908 
1914.000000	1.509770 
1912.000000	1.506291 
1910.000000	1.506634 
1908.000000	1.507319 
1906.000000	1.506208 
1904.000000	1.505096 
1902.000000	1.504947 
1900.000000	1.504603 
1898.000000	1.503364 
1896.000000	1.503753 
1894.000000	1.504748 
1892.000000	1.501300 
1890.000000	1.500077 
1888.000000	1.503816 
1886.000000	1.501488 
1884.000000	1.499963 
1882.000000	1.500019 
1880.000000	1.498858 
1878.000000	1.498998 
1876.000000	1.498248 
1874.000000	1.497248 
1872.000000	1.493869 
1870.000000	1.494237 
1868.000000	1.503258 
1866.000000	1.503506 
1864.000000	1.498294 
1862.000000	1.495884 
1860.000000	1.494518 
1858.000000	1.493092 
1856.000000	1.493114 
1854.000000	1.493337 
1852.000000	1.492763 
1850.000000	1.491108 
1848.000000	1.489070 
1846.000000	1.485529 
1844.000000	1.494567 
1842.000000	1.502737 
1840.000000	1.494437 
1838.000000	1.490243 
1836.000000	1.489581 
1834.000000	1.487274 
1832.000000	1.482500 
1830.000000	1.486458 
1828.000000	1.492004 
1826.000000	1.487423 
1824.000000	1.488892 
1822.000000	1.487248 
1820.000000	1.482252 
1818.000000	1.480665 
1816.000000	1.481461 
1814.000000	1.479352 
1812.000000	1.478896 
1810.000000	1.482346 
1808.000000	1.481637 
1806.000000	1.478662 
1804.000000	1.476746 
1802.000000	1.475748 
1800.000000	1.479211 
1798.000000	1.478088 
1796.000000	1.473340 
1794.000000	1.465460 
1792.000000	1.473913 
1790.000000	1.482915 
1788.000000	1.473112 
1786.000000	1.465635 
1784.000000	1.467445 
1782.000000	1.466180 
1780.000000	1.466495 
1778.000000	1.466562 
1776.000000	1.459816 
1774.000000	1.453697 
1772.000000	1.465403 
1770.000000	1.472077 
1768.000000	1.466465 
1766.000000	1.463301 
1764.000000	1.453612 
1762.000000	1.456727 
1760.000000	1.461506 
1758.000000	1.454602 
1756.000000	1.459721 
1754.000000	1.454554 
1752.000000	1.446871 
1750.000000	1.459977 
1748.000000	1.463238 
1746.000000	1.457480 
1744.000000	1.453009 
1742.000000	1.452219 
1740.000000	1.452219 
1738.000000	1.457462 
1736.000000	1.439932 
1734.000000	1.452310 
1732.000000	1.472126 
1730.000000	1.459831 
1728.000000	1.455821 
1726.000000	1.450726 
1724.000000	1.448357 
1722.000000	1.447051 
1720.000000	1.437238 
1718.000000	1.444114 
1716.000000	1.464216 
1714.000000	1.461278 
1712.000000	1.450782 
1710.000000	1.442333 
1708.000000	1.435821 
1706.000000	1.439527 
1704.000000	1.442104 
1702.000000	1.420373 
1700.000000	1.440257 
1698.000000	1.448651 
1696.000000	1.440137 
1694.000000	1.446538 
1692.000000	1.428940 
1690.000000	1.422654 
1688.000000	1.420438 
1686.000000	1.404574 
1684.000000	1.427977 
1682.000000	1.445561 
1680.000000	1.426136 
1678.000000	1.413183 
1676.000000	1.407480 
1674.000000	1.421226 
1672.000000	1.414733 
1670.000000	1.413752 
1668.000000	1.426391 
1666.000000	1.416501 
1664.000000	1.405569 
1662.000000	1.414797 
1660.000000	1.416404 
1658.000000	1.406658 
1656.000000	1.389239 
1654.000000	1.388061 
1652.000000	1.440454 
1650.000000	1.424375 
1648.000000	1.402757 
1646.000000	1.423076 
1644.000000	1.425982 
1642.000000	1.413039 
1640.000000	1.407255 
1638.000000	1.398678 
1636.000000	1.411362 
1634.000000	1.433775 
1632.000000	1.419540 
1630.000000	1.405975 
1628.000000	1.407377 
1626.000000	1.408762 
1624.000000	1.408129 
1622.000000	1.415118 
1620.000000	1.402705 
1618.000000	1.389889 
1616.000000	1.405796 
1614.000000	1.406460 
1612.000000	1.391614 
1610.000000	1.386083 
1608.000000	1.385036 
1606.000000	1.381708 
1604.000000	1.377179 
1602.000000	1.373393 
1600.000000	1.368996 
1598.000000	1.364922 
1596.000000	1.362466 
1594.000000	1.360697 
1592.000000	1.358167 
1590.000000	1.354433 
1588.000000	1.351526 
1586.000000	1.349484 
1584.000000	1.347744 
1582.000000	1.345623 
1580.000000	1.341878 
1578.000000	1.332267 
1576.000000	1.345393 
1574.000000	1.353729 
1572.000000	1.336075 
1570.000000	1.335102 
1568.000000	1.345036 
1566.000000	1.336821 
1564.000000	1.332123 
1562.000000	1.319509 
1560.000000	1.319412 
1558.000000	1.367688 
1556.000000	1.354311 
1554.000000	1.335844 
1552.000000	1.328133 
1550.000000	1.323933 
1548.000000	1.321007 
1546.000000	1.313422 
1544.000000	1.314910 
1542.000000	1.318135 
1540.000000	1.334035 
1538.000000	1.339293 
1536.000000	1.315772 
1534.000000	1.309152 
1532.000000	1.318706 
1530.000000	1.308572 
1528.000000	1.301949 
1526.000000	1.304751 
1524.000000	1.302609 
1522.000000	1.303972 
1520.000000	1.317597 
1518.000000	1.307281 
1516.000000	1.306171 
1514.000000	1.301370 
1512.000000	1.293379 
1510.000000	1.288590 
1508.000000	1.287982 
1506.000000	1.316377 
1504.000000	1.310265 
1502.000000	1.287519 
1500.000000	1.277750 
1498.000000	1.281966 
1496.000000	1.294199 
1494.000000	1.291702 
1492.000000	1.281788 
1490.000000	1.287928 
1488.000000	1.293723 
1486.000000	1.288328 
1484.000000	1.279380 
1482.000000	1.275140 
1480.000000	1.276165 
1478.000000	1.273176 
1476.000000	1.274736 
1474.000000	1.276723 
1472.000000	1.290037 
1470.000000	1.288039 
1468.000000	1.273362 
1466.000000	1.269623 
1464.000000	1.277607 
1462.000000	1.273860 
1460.000000	1.262639 
1458.000000	1.268513 
1456.000000	1.290730 
1454.000000	1.281960 
1452.000000	1.267318 
1450.000000	1.262345 
1448.000000	1.262817 
1446.000000	1.262770 
1444.000000	1.255725 
1442.000000	1.250658 
1440.000000	1.244554 
1438.000000	1.240833 
1436.000000	1.252517 
1434.000000	1.249354 
1432.000000	1.238140 
1430.000000	1.236911 
1428.000000	1.236168 
1426.000000	1.229498 
1424.000000	1.229514 
1422.000000	1.226179 
1420.000000	1.224010 
1418.000000	1.234897 
1416.000000	1.228866 
1414.000000	1.218576 
1412.000000	1.214788 
1410.000000	1.213047 
1408.000000	1.209489 
1406.000000	1.208094 
1404.000000	1.210608 
1402.000000	1.207296 
1400.000000	1.205070 
1398.000000	1.208131 
1396.000000	1.205627 
1394.000000	1.205359 
1392.000000	1.200737 
1390.000000	1.192753 
1388.000000	1.192897 
1386.000000	1.195872 
1384.000000	1.192063 
1382.000000	1.188157 
1380.000000	1.185520 
1378.000000	1.183084 
1376.000000	1.179909 
1374.000000	1.180825 
1372.000000	1.179533 
1370.000000	1.174927 
1368.000000	1.173032 
1366.000000	1.170200 
1364.000000	1.168233 
1362.000000	1.170222 
1360.000000	1.167220 
1358.000000	1.161671 
1356.000000	1.157913 
1354.000000	1.156052 
1352.000000	1.154194 
1350.000000	1.152869 
1348.000000	1.150321 
1346.000000	1.147376 
1344.000000	1.144606 
1342.000000	1.142728 
1340.000000	1.143604 
1338.000000	1.142283 
1336.000000	1.137530 
1334.000000	1.135803 
1332.000000	1.135308 
1330.000000	1.133409 
1328.000000	1.131037 
1326.000000	1.130009 
1324.000000	1.129472 
1322.000000	1.127331 
1320.000000	1.126316 
1318.000000	1.125591 
1316.000000	1.124045 
1314.000000	1.122252 
1312.000000	1.120930 
1310.000000	1.119127 
1308.000000	1.117705 
1306.000000	1.116231 
1304.000000	1.114682 
1302.000000	1.113434 
1300.000000	1.112290 
1298.000000	1.111523 
1296.000000	1.110236 
1294.000000	1.107980 
1292.000000	1.106798 
1290.000000	1.105907 
1288.000000	1.105633 
1286.000000	1.105527 
1284.000000	1.104249 
1282.000000	1.103453 
1280.000000	1.102679 
1278.000000	1.102043 
1276.000000	1.101925 
1274.000000	1.102219 
1272.000000	1.103248 
1270.000000	1.104907 
1268.000000	1.105377 
1266.000000	1.105851 
1264.000000	1.106479 
1262.000000	1.106917 
1260.000000	1.106898 
1258.000000	1.107113 
1256.000000	1.108107 
1254.000000	1.109652 
1252.000000	1.112092 
1250.000000	1.115908 
1248.000000	1.120390 
1246.000000	1.124927 
1244.000000	1.129465 
1242.000000	1.136714 
1240.000000	1.146478 
1238.000000	1.156999 
1236.000000	1.166407 
1234.000000	1.177580 
1232.000000	1.192394 
1230.000000	1.208778 
1228.000000	1.225044 
1226.000000	1.241925 
1224.000000	1.260024 
1222.000000	1.278787 
1220.000000	1.298814 
1218.000000	1.320809 
1216.000000	1.343051 
1214.000000	1.364841 
1212.000000	1.388795 
1210.000000	1.411287 
1208.000000	1.431782 
1206.000000	1.454071 
1204.000000	1.476188 
1202.000000	1.497528 
1200.000000	1.517861 
1198.000000	1.538498 
1196.000000	1.560781 
1194.000000	1.582323 
1192.000000	1.602444 
1190.000000	1.619768 
1188.000000	1.637534 
1186.000000	1.655637 
1184.000000	1.670547 
1182.000000	1.687816 
1180.000000	1.709193 
1178.000000	1.724383 
1176.000000	1.733820 
1174.000000	1.748327 
1172.000000	1.764876 
1170.000000	1.777379 
1168.000000	1.788756 
1166.000000	1.796862 
1164.000000	1.803027 
1162.000000	1.811849 
1160.000000	1.821531 
1158.000000	1.831081 
1156.000000	1.839021 
1154.000000	1.843171 
1152.000000	1.851036 
1150.000000	1.859853 
1148.000000	1.867334 
1146.000000	1.877811 
1144.000000	1.884228 
1142.000000	1.888300 
1140.000000	1.890089 
1138.000000	1.893413 
1136.000000	1.901064 
1134.000000	1.907442 
1132.000000	1.912829 
1130.000000	1.917515 
1128.000000	1.922692 
1126.000000	1.926880 
1124.000000	1.930376 
1122.000000	1.938219 
1120.000000	1.951044 
1118.000000	1.956142 
1116.000000	1.957079 
1114.000000	1.967914 
1112.000000	1.983760 
1110.000000	1.987879 
1108.000000	1.993078 
1106.000000	2.005868 
1104.000000	2.006855 
1102.000000	2.007824 
1100.000000	2.028531 
1098.000000	2.055795 
1096.000000	2.069432 
1094.000000	2.077400 
1092.000000	2.084881 
1090.000000	2.099445 
1088.000000	2.119454 
1086.000000	2.135111 
1084.000000	2.145581 
1082.000000	2.166978 
1080.000000	2.185576 
1078.000000	2.190300 
1076.000000	2.200202 
1074.000000	2.217229 
1072.000000	2.219162 
1070.000000	2.222191 
1068.000000	2.236929 
1066.000000	2.239707 
1064.000000	2.239383 
1062.000000	2.240373 
1060.000000	2.227840 
1058.000000	2.210535 
1056.000000	2.199710 
1054.000000	2.186068 
1052.000000	2.163206 
1050.000000	2.158259 
1048.000000	2.144902 
1046.000000	2.111793 
1044.000000	2.081209 
1042.000000	2.051264 
1040.000000	2.020784 
1038.000000	1.995510 
1036.000000	1.965794 
1034.000000	1.921437 
1032.000000	1.881643 
1030.000000	1.844544 
1028.000000	1.800999 
1026.000000	1.753384 
1024.000000	1.705988 
1022.000000	1.655838 
1020.000000	1.604758 
1018.000000	1.554270 
1016.000000	1.504226 
1014.000000	1.452795 
1012.000000	1.404543 
1010.000000	1.356078 
1008.000000	1.307405 
1006.000000	1.261923 
1004.000000	1.218189 
1002.000000	1.177312 
1000.000000	1.140601 
998.000000	 1.107770 
996.000000	 1.078994 
994.000000	 1.055149 
992.000000	 1.037171 
990.000000	 1.027269 
988.000000	 1.024795 
986.000000	 1.024152 
984.000000	 1.017957 
982.000000	 1.007978 
980.000000	 0.995254 
978.000000	 0.978463 
976.000000	 0.958650 
974.000000	 0.937005 
972.000000	 0.915029 
970.000000	 0.895243 
968.000000	 0.879393 
966.000000	 0.867927 
964.000000	 0.859709 
962.000000	 0.853513 
960.000000	 0.849195 
958.000000	 0.846851 
956.000000	 0.847862 
954.000000	 0.852225 
952.000000	 0.858975 
950.000000	 0.868856 
948.000000	 0.880419 
946.000000	 0.890928 
944.000000	 0.899426 
942.000000	 0.904076 
940.000000	 0.904579 
938.000000	 0.902135 
936.000000	 0.897116 
934.000000	 0.890658 
932.000000	 0.884822 
930.000000	 0.878329 
928.000000	 0.869154 
926.000000	 0.858355 
924.000000	 0.847156 
922.000000	 0.836789 
920.000000	 0.828779 
918.000000	 0.823262 
916.000000	 0.820587 
914.000000	 0.821299 
912.000000	 0.825416 
910.000000	 0.832167 
908.000000	 0.840530 
906.000000	 0.849835 
904.000000	 0.861026 
902.000000	 0.874714 
900.000000	 0.891307 
898.000000	 0.913842 
896.000000	 0.944551 
894.000000	 0.982839 
892.000000	 1.027400 
890.000000	 1.075827 
888.000000	 1.124017 
886.000000	 1.168866 
884.000000	 1.208221 
882.000000	 1.239840 
880.000000	 1.259890 
878.000000	 1.266707 
876.000000	 1.264166 
874.000000	 1.253188 
872.000000	 1.235852 
870.000000	 1.217430 
868.000000	 1.197461 
866.000000	 1.177342 
864.000000	 1.160619 
862.000000	 1.147449 
860.000000	 1.135202 
858.000000	 1.123270 
856.000000	 1.115032 
854.000000	 1.108711 
852.000000	 1.101124 
850.000000	 1.094718 
848.000000	 1.089597 
846.000000	 1.084992 
844.000000	 1.078548 
842.000000	 1.067195 
840.000000	 1.052748 
838.000000	 1.035404 
836.000000	 1.011684 
834.000000	 0.980998 
832.000000	 0.944144 
830.000000	 0.900561 
828.000000	 0.851324 
826.000000	 0.802420 
824.000000	 0.758797 
822.000000	 0.723549 
820.000000	 0.696347 
818.000000	 0.674908 
816.000000	 0.658440 
814.000000	 0.646156 
812.000000	 0.636604 
810.000000	 0.629011 
808.000000	 0.623404 
806.000000	 0.618287 
804.000000	 0.613173 
802.000000	 0.607767 
800.000000	 0.601770 
798.000000	 0.595652 
796.000000	 0.589825 
794.000000	 0.584208 
792.000000	 0.578446 
790.000000	 0.573195 
788.000000	 0.568951 
786.000000	 0.564902 
784.000000	 0.560971 
782.000000	 0.557633 
780.000000	 0.553867 
778.000000	 0.550225 
776.000000	 0.547814 
774.000000	 0.545638 
772.000000	 0.543211 
770.000000	 0.541797 
768.000000	 0.540982 
766.000000	 0.539956 
764.000000	 0.539190 
762.000000	 0.538852 
760.000000	 0.538314 
758.000000	 0.537775 
756.000000	 0.537220 
754.000000	 0.536952 
752.000000	 0.536561 
750.000000	 0.535424 
748.000000	 0.533445 
746.000000	 0.531633 
744.000000	 0.529641 
742.000000	 0.526899 
740.000000	 0.524070 
738.000000	 0.521016 
736.000000	 0.516863 
734.000000	 0.512812 
732.000000	 0.508966 
730.000000	 0.504274 
728.000000	 0.499520 
726.000000	 0.495235 
724.000000	 0.491606 
722.000000	 0.488085 
720.000000	 0.484591 
718.000000	 0.482620 
716.000000	 0.481859 
714.000000	 0.480530 
712.000000	 0.479065 
710.000000	 0.476043 
708.000000	 0.470738 
706.000000	 0.464033 
704.000000	 0.455470 
702.000000	 0.445597 
700.000000	 0.435718 
698.000000	 0.426722 
696.000000	 0.418952 
694.000000	 0.411529 
692.000000	 0.404785 
690.000000	 0.399790 
688.000000	 0.395438 
686.000000	 0.391363 
684.000000	 0.387434 
682.000000	 0.384192 
680.000000	 0.381315 
678.000000	 0.378092 
676.000000	 0.375084 
674.000000	 0.372734 
672.000000	 0.370188 
670.000000	 0.367710 
668.000000	 0.366850 
666.000000	 0.363969 
664.000000	 0.359995 
662.000000	 0.357274 
660.000000	 0.355044 
658.000000	 0.353140 
656.000000	 0.350873 
654.000000	 0.348597 
652.000000	 0.346486 
650.000000	 0.344092 
648.000000	 0.341991 
646.000000	 0.340360 
644.000000	 0.337891 
642.000000	 0.335462 
640.000000	 0.333232 
638.000000	 0.330921 
636.000000	 0.328596 
634.000000	 0.325858 
632.000000	 0.322707 
630.000000	 0.318434 
628.000000	 0.312887 
626.000000	 0.307804 
624.000000	 0.302638 
622.000000	 0.296451 
620.000000	 0.290876 
618.000000	 0.286705 
616.000000	 0.282188 
614.000000	 0.276931 
612.000000	 0.272323 
610.000000	 0.267672 
608.000000	 0.262916 
606.000000	 0.258477 
604.000000	 0.254559 
602.000000	 0.251055 
600.000000	 0.247326 
598.000000	 0.242740 
596.000000	 0.239055 
594.000000	 0.235618 
592.000000	 0.231658 
590.000000	 0.226893 
588.000000	 0.222668 
586.000000	 0.219071 
584.000000	 0.215225 
582.000000	 0.211501 
580.000000	 0.208765 
578.000000	 0.206061 
576.000000	 0.202578 
574.000000	 0.198623 
572.000000	 0.195437 
570.000000	 0.192688 
568.000000	 0.189904 
566.000000	 0.187618 
564.000000	 0.185757 
562.000000	 0.183469 
560.000000	 0.180994 
558.000000	 0.179396 
556.000000	 0.178352 
554.000000	 0.177205 
552.000000	 0.176244 
550.000000	 0.175662 
548.000000	 0.174773 
546.000000	 0.174482 
544.000000	 0.174196 
542.000000	 0.173954 
540.000000	 0.174110 
538.000000	 0.174307 
536.000000	 0.174490 
534.000000	 0.175360 
532.000000	 0.176139 
530.000000	 0.176399 
528.000000	 0.177537 
526.000000	 0.179009 
524.000000	 0.179114 
522.000000	 0.179295 
520.000000	 0.180988 
518.000000	 0.182801 
516.000000	 0.183499 
514.000000	 0.184110 
512.000000	 0.186473 
510.000000	 0.189993 
508.000000	 0.193815 
506.000000	 0.198190 
504.000000	 0.204009 
502.000000	 0.210875 
500.000000	 0.216804 
498.000000	 0.224329 
496.000000	 0.235062 
494.000000	 0.246734 
492.000000	 0.259013 
490.000000	 0.271299 
488.000000	 0.284024 
486.000000	 0.298809 
484.000000	 0.314631 
482.000000	 0.328723 
480.000000	 0.341753 
478.000000	 0.355404 
476.000000	 0.368503 
474.000000	 0.381240 
472.000000	 0.393568 
470.000000	 0.402970 
468.000000	 0.410809 
466.000000	 0.417922 
464.000000	 0.422988 
462.000000	 0.427997 
460.000000	 0.433263 
458.000000	 0.437107 
456.000000	 0.438870 
454.000000	 0.439810 
452.000000	 0.438864 
450.000000	 0.436415 

